# Frequency (Hz)	EO Bandwidth (dB)
1.00e+08	-0.000039
2.00e+08	-0.000157
3.00e+08	-0.000353
4.00e+08	-0.000628
5.00e+08	-0.000980
6.00e+08	-0.001412
7.00e+08	-0.001922
8.00e+08	-0.002510
9.00e+08	-0.003176
1.00e+09	-0.003921
1.10e+09	-0.004744
1.20e+09	-0.005645
1.30e+09	-0.006624
1.40e+09	-0.007682
1.50e+09	-0.008817
1.60e+09	-0.010031
1.70e+09	-0.011322
1.80e+09	-0.012692
1.90e+09	-0.014139
2.00e+09	-0.015664
2.10e+09	-0.017267
2.20e+09	-0.018947
2.30e+09	-0.020705
2.40e+09	-0.022541
2.50e+09	-0.024454
2.60e+09	-0.026444
2.70e+09	-0.028511
2.80e+09	-0.030656
2.90e+09	-0.032877
3.00e+09	-0.035176
3.10e+09	-0.037551
3.20e+09	-0.040003
3.30e+09	-0.042531
3.40e+09	-0.045136
3.50e+09	-0.047818
3.60e+09	-0.050575
3.70e+09	-0.053409
3.80e+09	-0.056318
3.90e+09	-0.059304
4.00e+09	-0.062365
4.10e+09	-0.065501
4.20e+09	-0.068713
4.30e+09	-0.072001
4.40e+09	-0.075363
4.50e+09	-0.078800
4.60e+09	-0.082312
4.70e+09	-0.085899
4.80e+09	-0.089561
4.90e+09	-0.093296
5.00e+09	-0.097106
5.10e+09	-0.100990
5.20e+09	-0.104947
5.30e+09	-0.108978
5.40e+09	-0.113083
5.50e+09	-0.117261
5.60e+09	-0.121512
5.70e+09	-0.125835
5.80e+09	-0.130232
5.90e+09	-0.134701
6.00e+09	-0.139242
6.10e+09	-0.143856
6.20e+09	-0.148541
6.30e+09	-0.153298
6.40e+09	-0.158126
6.50e+09	-0.163026
6.60e+09	-0.167997
6.70e+09	-0.173038
6.80e+09	-0.178151
6.90e+09	-0.183333
7.00e+09	-0.188586
7.10e+09	-0.193909
7.20e+09	-0.199301
7.30e+09	-0.204763
7.40e+09	-0.210295
7.50e+09	-0.215895
7.60e+09	-0.221564
7.70e+09	-0.227301
7.80e+09	-0.233107
7.90e+09	-0.238981
8.00e+09	-0.244923
8.10e+09	-0.250932
8.20e+09	-0.257009
8.30e+09	-0.263152
8.40e+09	-0.269363
8.50e+09	-0.275640
8.60e+09	-0.281983
8.70e+09	-0.288392
8.80e+09	-0.294867
8.90e+09	-0.301407
9.00e+09	-0.308013
9.10e+09	-0.314684
9.20e+09	-0.321419
9.30e+09	-0.328219
9.40e+09	-0.335082
9.50e+09	-0.342010
9.60e+09	-0.349001
9.70e+09	-0.356056
9.80e+09	-0.363173
9.90e+09	-0.370353
1.00e+10	-0.377596
1.01e+10	-0.384901
1.02e+10	-0.392268
1.03e+10	-0.399696
1.04e+10	-0.407186
1.05e+10	-0.414736
1.06e+10	-0.422347
1.07e+10	-0.430019
1.08e+10	-0.437751
1.09e+10	-0.445543
1.10e+10	-0.453394
1.11e+10	-0.461304
1.12e+10	-0.469273
1.13e+10	-0.477301
1.14e+10	-0.485387
1.15e+10	-0.493532
1.16e+10	-0.501734
1.17e+10	-0.509993
1.18e+10	-0.518310
1.19e+10	-0.526683
1.20e+10	-0.535113
1.21e+10	-0.543598
1.22e+10	-0.552140
1.23e+10	-0.560738
1.24e+10	-0.569390
1.25e+10	-0.578098
1.26e+10	-0.586860
1.27e+10	-0.595676
1.28e+10	-0.604547
1.29e+10	-0.613471
1.30e+10	-0.622448
1.31e+10	-0.631479
1.32e+10	-0.640562
1.33e+10	-0.649698
1.34e+10	-0.658885
1.35e+10	-0.668125
1.36e+10	-0.677416
1.37e+10	-0.686758
1.38e+10	-0.696151
1.39e+10	-0.705595
1.40e+10	-0.715088
1.41e+10	-0.724632
1.42e+10	-0.734225
1.43e+10	-0.743867
1.44e+10	-0.753558
1.45e+10	-0.763298
1.46e+10	-0.773086
1.47e+10	-0.782922
1.48e+10	-0.792806
1.49e+10	-0.802737
1.50e+10	-0.812715
1.51e+10	-0.822740
1.52e+10	-0.832811
1.53e+10	-0.842928
1.54e+10	-0.853090
1.55e+10	-0.863299
1.56e+10	-0.873552
1.57e+10	-0.883850
1.58e+10	-0.894192
1.59e+10	-0.904579
1.60e+10	-0.915009
1.61e+10	-0.925483
1.62e+10	-0.936000
1.63e+10	-0.946559
1.64e+10	-0.957162
1.65e+10	-0.967806
1.66e+10	-0.978492
1.67e+10	-0.989220
1.68e+10	-0.999990
1.69e+10	-1.010800
1.70e+10	-1.021651
1.71e+10	-1.032542
1.72e+10	-1.043473
1.73e+10	-1.054443
1.74e+10	-1.065454
1.75e+10	-1.076503
1.76e+10	-1.087591
1.77e+10	-1.098717
1.78e+10	-1.109882
1.79e+10	-1.121084
1.80e+10	-1.132324
1.81e+10	-1.143601
1.82e+10	-1.154915
1.83e+10	-1.166265
1.84e+10	-1.177652
1.85e+10	-1.189075
1.86e+10	-1.200533
1.87e+10	-1.212027
1.88e+10	-1.223556
1.89e+10	-1.235119
1.90e+10	-1.246717
1.91e+10	-1.258349
1.92e+10	-1.270015
1.93e+10	-1.281715
1.94e+10	-1.293448
1.95e+10	-1.305214
1.96e+10	-1.317012
1.97e+10	-1.328843
1.98e+10	-1.340706
1.99e+10	-1.352600
2.00e+10	-1.364526
2.01e+10	-1.376484
2.02e+10	-1.388472
2.03e+10	-1.400491
2.04e+10	-1.412540
2.05e+10	-1.424619
2.06e+10	-1.436728
2.07e+10	-1.448866
2.08e+10	-1.461034
2.09e+10	-1.473230
2.10e+10	-1.485455
2.11e+10	-1.497709
2.12e+10	-1.509990
2.13e+10	-1.522299
2.14e+10	-1.534636
2.15e+10	-1.547000
2.16e+10	-1.559390
2.17e+10	-1.571808
2.18e+10	-1.584252
2.19e+10	-1.596721
2.20e+10	-1.609217
2.21e+10	-1.621738
2.22e+10	-1.634285
2.23e+10	-1.646857
2.24e+10	-1.659453
2.25e+10	-1.672074
2.26e+10	-1.684719
2.27e+10	-1.697388
2.28e+10	-1.710081
2.29e+10	-1.722797
2.30e+10	-1.735536
2.31e+10	-1.748299
2.32e+10	-1.761084
2.33e+10	-1.773891
2.34e+10	-1.786721
2.35e+10	-1.799572
2.36e+10	-1.812445
2.37e+10	-1.825340
2.38e+10	-1.838255
2.39e+10	-1.851192
2.40e+10	-1.864149
2.41e+10	-1.877126
2.42e+10	-1.890124
2.43e+10	-1.903142
2.44e+10	-1.916179
2.45e+10	-1.929236
2.46e+10	-1.942312
2.47e+10	-1.955407
2.48e+10	-1.968520
2.49e+10	-1.981652
2.50e+10	-1.994802
2.51e+10	-2.007971
2.52e+10	-2.021157
2.53e+10	-2.034360
2.54e+10	-2.047581
2.55e+10	-2.060819
2.56e+10	-2.074074
2.57e+10	-2.087345
2.58e+10	-2.100633
2.59e+10	-2.113937
2.60e+10	-2.127257
2.61e+10	-2.140593
2.62e+10	-2.153944
2.63e+10	-2.167311
2.64e+10	-2.180692
2.65e+10	-2.194089
2.66e+10	-2.207500
2.67e+10	-2.220926
2.68e+10	-2.234365
2.69e+10	-2.247819
2.70e+10	-2.261287
2.71e+10	-2.274768
2.72e+10	-2.288263
2.73e+10	-2.301770
2.74e+10	-2.315291
2.75e+10	-2.328825
2.76e+10	-2.342371
2.77e+10	-2.355929
2.78e+10	-2.369500
2.79e+10	-2.383082
2.80e+10	-2.396677
2.81e+10	-2.410283
2.82e+10	-2.423900
2.83e+10	-2.437528
2.84e+10	-2.451168
2.85e+10	-2.464818
2.86e+10	-2.478479
2.87e+10	-2.492151
2.88e+10	-2.505832
2.89e+10	-2.519524
2.90e+10	-2.533225
2.91e+10	-2.546937
2.92e+10	-2.560657
2.93e+10	-2.574388
2.94e+10	-2.588127
2.95e+10	-2.601875
2.96e+10	-2.615632
2.97e+10	-2.629398
2.98e+10	-2.643172
2.99e+10	-2.656954
3.00e+10	-2.670744
3.01e+10	-2.684543
3.02e+10	-2.698349
3.03e+10	-2.712162
3.04e+10	-2.725984
3.05e+10	-2.739812
3.06e+10	-2.753647
3.07e+10	-2.767490
3.08e+10	-2.781339
3.09e+10	-2.795194
3.10e+10	-2.809057
3.11e+10	-2.822925
3.12e+10	-2.836800
3.13e+10	-2.850680
3.14e+10	-2.864566
3.15e+10	-2.878458
3.16e+10	-2.892356
3.17e+10	-2.906259
3.18e+10	-2.920167
3.19e+10	-2.934080
3.20e+10	-2.947998
3.21e+10	-2.961920
3.22e+10	-2.975848
3.23e+10	-2.989779
3.24e+10	-3.003715
3.25e+10	-3.017656
3.26e+10	-3.031600
3.27e+10	-3.045548
3.28e+10	-3.059500
3.29e+10	-3.073455
3.30e+10	-3.087414
3.31e+10	-3.101376
3.32e+10	-3.115342
3.33e+10	-3.129310
3.34e+10	-3.143282
3.35e+10	-3.157256
3.36e+10	-3.171233
3.37e+10	-3.185212
3.38e+10	-3.199194
3.39e+10	-3.213178
3.40e+10	-3.227164
3.41e+10	-3.241152
3.42e+10	-3.255142
3.43e+10	-3.269134
3.44e+10	-3.283128
3.45e+10	-3.297123
3.46e+10	-3.311119
3.47e+10	-3.325117
3.48e+10	-3.339115
3.49e+10	-3.353115
3.50e+10	-3.367116
3.51e+10	-3.381117
3.52e+10	-3.395120
3.53e+10	-3.409122
3.54e+10	-3.423126
3.55e+10	-3.437129
3.56e+10	-3.451133
3.57e+10	-3.465137
3.58e+10	-3.479141
3.59e+10	-3.493145
3.60e+10	-3.507148
3.61e+10	-3.521151
3.62e+10	-3.535154
3.63e+10	-3.549157
3.64e+10	-3.563158
3.65e+10	-3.577159
3.66e+10	-3.591159
3.67e+10	-3.605158
3.68e+10	-3.619156
3.69e+10	-3.633153
3.70e+10	-3.647149
3.71e+10	-3.661143
3.72e+10	-3.675136
3.73e+10	-3.689128
3.74e+10	-3.703117
3.75e+10	-3.717105
3.76e+10	-3.731091
3.77e+10	-3.745076
3.78e+10	-3.759058
3.79e+10	-3.773038
3.80e+10	-3.787016
3.81e+10	-3.800992
3.82e+10	-3.814965
3.83e+10	-3.828936
3.84e+10	-3.842904
3.85e+10	-3.856869
3.86e+10	-3.870832
3.87e+10	-3.884792
3.88e+10	-3.898749
3.89e+10	-3.912704
3.90e+10	-3.926655
3.91e+10	-3.940603
3.92e+10	-3.954547
3.93e+10	-3.968489
3.94e+10	-3.982427
3.95e+10	-3.996361
3.96e+10	-4.010292
3.97e+10	-4.024219
3.98e+10	-4.038143
3.99e+10	-4.052063
4.00e+10	-4.065979
4.01e+10	-4.079891
4.02e+10	-4.093799
4.03e+10	-4.107703
4.04e+10	-4.121603
4.05e+10	-4.135498
4.06e+10	-4.149390
4.07e+10	-4.163277
4.08e+10	-4.177159
4.09e+10	-4.191037
4.10e+10	-4.204910
4.11e+10	-4.218779
4.12e+10	-4.232643
4.13e+10	-4.246502
4.14e+10	-4.260357
4.15e+10	-4.274206
4.16e+10	-4.288051
4.17e+10	-4.301890
4.18e+10	-4.315724
4.19e+10	-4.329553
4.20e+10	-4.343377
4.21e+10	-4.357196
4.22e+10	-4.371009
4.23e+10	-4.384817
4.24e+10	-4.398619
4.25e+10	-4.412416
4.26e+10	-4.426207
4.27e+10	-4.439993
4.28e+10	-4.453773
4.29e+10	-4.467547
4.30e+10	-4.481315
4.31e+10	-4.495077
4.32e+10	-4.508834
4.33e+10	-4.522584
4.34e+10	-4.536329
4.35e+10	-4.550067
4.36e+10	-4.563799
4.37e+10	-4.577525
4.38e+10	-4.591245
4.39e+10	-4.604958
4.40e+10	-4.618665
4.41e+10	-4.632365
4.42e+10	-4.646059
4.43e+10	-4.659747
4.44e+10	-4.673428
4.45e+10	-4.687102
4.46e+10	-4.700770
4.47e+10	-4.714431
4.48e+10	-4.728086
4.49e+10	-4.741733
4.50e+10	-4.755374
4.51e+10	-4.769007
4.52e+10	-4.782634
4.53e+10	-4.796254
4.54e+10	-4.809867
4.55e+10	-4.823473
4.56e+10	-4.837071
4.57e+10	-4.850663
4.58e+10	-4.864247
4.59e+10	-4.877824
4.60e+10	-4.891394
4.61e+10	-4.904956
4.62e+10	-4.918512
4.63e+10	-4.932059
4.64e+10	-4.945600
4.65e+10	-4.959132
4.66e+10	-4.972658
4.67e+10	-4.986175
4.68e+10	-4.999686
4.69e+10	-5.013188
4.70e+10	-5.026683
4.71e+10	-5.040170
4.72e+10	-5.053650
4.73e+10	-5.067121
4.74e+10	-5.080585
4.75e+10	-5.094041
4.76e+10	-5.107489
4.77e+10	-5.120930
4.78e+10	-5.134362
4.79e+10	-5.147786
4.80e+10	-5.161203
4.81e+10	-5.174611
4.82e+10	-5.188011
4.83e+10	-5.201403
4.84e+10	-5.214787
4.85e+10	-5.228163
4.86e+10	-5.241531
4.87e+10	-5.254890
4.88e+10	-5.268242
4.89e+10	-5.281584
4.90e+10	-5.294919
4.91e+10	-5.308245
4.92e+10	-5.321563
4.93e+10	-5.334873
4.94e+10	-5.348174
4.95e+10	-5.361467
4.96e+10	-5.374751
4.97e+10	-5.388026
4.98e+10	-5.401294
4.99e+10	-5.414552
5.00e+10	-5.427802
5.01e+10	-5.441044
5.02e+10	-5.454277
5.03e+10	-5.467501
5.04e+10	-5.480716
5.05e+10	-5.493923
5.06e+10	-5.507121
5.07e+10	-5.520310
5.08e+10	-5.533491
5.09e+10	-5.546663
5.10e+10	-5.559826
5.11e+10	-5.572980
5.12e+10	-5.586125
5.13e+10	-5.599262
5.14e+10	-5.612389
5.15e+10	-5.625508
5.16e+10	-5.638618
5.17e+10	-5.651718
5.18e+10	-5.664810
5.19e+10	-5.677893
5.20e+10	-5.690967
5.21e+10	-5.704032
5.22e+10	-5.717087
5.23e+10	-5.730134
5.24e+10	-5.743172
5.25e+10	-5.756200
5.26e+10	-5.769219
5.27e+10	-5.782230
5.28e+10	-5.795231
5.29e+10	-5.808223
5.30e+10	-5.821205
5.31e+10	-5.834179
5.32e+10	-5.847143
5.33e+10	-5.860098
5.34e+10	-5.873044
5.35e+10	-5.885981
5.36e+10	-5.898908
5.37e+10	-5.911826
5.38e+10	-5.924735
5.39e+10	-5.937634
5.40e+10	-5.950524
5.41e+10	-5.963405
5.42e+10	-5.976276
5.43e+10	-5.989138
5.44e+10	-6.001991
5.45e+10	-6.014834
5.46e+10	-6.027668
5.47e+10	-6.040492
5.48e+10	-6.053307
5.49e+10	-6.066112
5.50e+10	-6.078909
5.51e+10	-6.091695
5.52e+10	-6.104472
5.53e+10	-6.117240
5.54e+10	-6.129998
5.55e+10	-6.142746
5.56e+10	-6.155486
5.57e+10	-6.168215
5.58e+10	-6.180935
5.59e+10	-6.193646
5.60e+10	-6.206346
5.61e+10	-6.219038
5.62e+10	-6.231720
5.63e+10	-6.244392
5.64e+10	-6.257054
5.65e+10	-6.269707
5.66e+10	-6.282351
5.67e+10	-6.294984
5.68e+10	-6.307609
5.69e+10	-6.320223
5.70e+10	-6.332828
5.71e+10	-6.345423
5.72e+10	-6.358009
5.73e+10	-6.370585
5.74e+10	-6.383151
5.75e+10	-6.395707
5.76e+10	-6.408254
5.77e+10	-6.420792
5.78e+10	-6.433319
5.79e+10	-6.445837
5.80e+10	-6.458345
5.81e+10	-6.470843
5.82e+10	-6.483332
5.83e+10	-6.495811
5.84e+10	-6.508280
5.85e+10	-6.520740
5.86e+10	-6.533189
5.87e+10	-6.545629
5.88e+10	-6.558060
5.89e+10	-6.570480
5.90e+10	-6.582891
5.91e+10	-6.595292
5.92e+10	-6.607683
5.93e+10	-6.620065
5.94e+10	-6.632437
5.95e+10	-6.644799
5.96e+10	-6.657151
5.97e+10	-6.669493
5.98e+10	-6.681826
5.99e+10	-6.694149
6.00e+10	-6.706462
6.01e+10	-6.718765
6.02e+10	-6.731059
6.03e+10	-6.743343
6.04e+10	-6.755617
6.05e+10	-6.767881
6.06e+10	-6.780135
6.07e+10	-6.792380
6.08e+10	-6.804614
6.09e+10	-6.816839
6.10e+10	-6.829055
6.11e+10	-6.841260
6.12e+10	-6.853455
6.13e+10	-6.865641
6.14e+10	-6.877817
6.15e+10	-6.889983
6.16e+10	-6.902140
6.17e+10	-6.914286
6.18e+10	-6.926423
6.19e+10	-6.938550
6.20e+10	-6.950667
6.21e+10	-6.962774
6.22e+10	-6.974872
6.23e+10	-6.986960
6.24e+10	-6.999037
6.25e+10	-7.011106
6.26e+10	-7.023164
6.27e+10	-7.035212
6.28e+10	-7.047251
6.29e+10	-7.059280
6.30e+10	-7.071299
6.31e+10	-7.083308
6.32e+10	-7.095308
6.33e+10	-7.107298
6.34e+10	-7.119277
6.35e+10	-7.131248
6.36e+10	-7.143208
6.37e+10	-7.155158
6.38e+10	-7.167099
6.39e+10	-7.179030
6.40e+10	-7.190951
6.41e+10	-7.202863
6.42e+10	-7.214764
6.43e+10	-7.226656
6.44e+10	-7.238538
6.45e+10	-7.250411
6.46e+10	-7.262273
6.47e+10	-7.274126
6.48e+10	-7.285969
6.49e+10	-7.297802
6.50e+10	-7.309626
6.51e+10	-7.321440
6.52e+10	-7.333243
6.53e+10	-7.345038
6.54e+10	-7.356822
6.55e+10	-7.368597
6.56e+10	-7.380362
6.57e+10	-7.392117
6.58e+10	-7.403863
6.59e+10	-7.415599
6.60e+10	-7.427325
6.61e+10	-7.439041
6.62e+10	-7.450748
6.63e+10	-7.462445
6.64e+10	-7.474132
6.65e+10	-7.485810
6.66e+10	-7.497478
6.67e+10	-7.509136
6.68e+10	-7.520784
6.69e+10	-7.532423
6.70e+10	-7.544052
6.71e+10	-7.555672
6.72e+10	-7.567281
6.73e+10	-7.578882
6.74e+10	-7.590472
6.75e+10	-7.602053
6.76e+10	-7.613624
6.77e+10	-7.625185
6.78e+10	-7.636737
6.79e+10	-7.648280
6.80e+10	-7.659812
6.81e+10	-7.671335
6.82e+10	-7.682848
6.83e+10	-7.694352
6.84e+10	-7.705846
6.85e+10	-7.717331
6.86e+10	-7.728806
6.87e+10	-7.740271
6.88e+10	-7.751727
6.89e+10	-7.763173
6.90e+10	-7.774610
6.91e+10	-7.786037
6.92e+10	-7.797454
6.93e+10	-7.808862
6.94e+10	-7.820260
6.95e+10	-7.831649
6.96e+10	-7.843028
6.97e+10	-7.854398
6.98e+10	-7.865758
6.99e+10	-7.877109
7.00e+10	-7.888450
7.01e+10	-7.899782
7.02e+10	-7.911104
7.03e+10	-7.922417
7.04e+10	-7.933720
7.05e+10	-7.945013
7.06e+10	-7.956298
7.07e+10	-7.967572
7.08e+10	-7.978838
7.09e+10	-7.990093
7.10e+10	-8.001340
7.11e+10	-8.012577
7.12e+10	-8.023804
7.13e+10	-8.035022
7.14e+10	-8.046231
7.15e+10	-8.057430
7.16e+10	-8.068620
7.17e+10	-8.079800
7.18e+10	-8.090972
7.19e+10	-8.102133
7.20e+10	-8.113285
7.21e+10	-8.124428
7.22e+10	-8.135562
7.23e+10	-8.146686
7.24e+10	-8.157801
7.25e+10	-8.168906
7.26e+10	-8.180003
7.27e+10	-8.191089
7.28e+10	-8.202167
7.29e+10	-8.213235
7.30e+10	-8.224294
7.31e+10	-8.235344
7.32e+10	-8.246384
7.33e+10	-8.257415
7.34e+10	-8.268437
7.35e+10	-8.279449
7.36e+10	-8.290452
7.37e+10	-8.301446
7.38e+10	-8.312431
7.39e+10	-8.323407
7.40e+10	-8.334373
7.41e+10	-8.345330
7.42e+10	-8.356278
7.43e+10	-8.367217
7.44e+10	-8.378146
7.45e+10	-8.389066
7.46e+10	-8.399977
7.47e+10	-8.410879
7.48e+10	-8.421772
7.49e+10	-8.432656
7.50e+10	-8.443530
7.51e+10	-8.454395
7.52e+10	-8.465252
7.53e+10	-8.476099
7.54e+10	-8.486937
7.55e+10	-8.497765
7.56e+10	-8.508585
7.57e+10	-8.519396
7.58e+10	-8.530197
7.59e+10	-8.540990
7.60e+10	-8.551773
7.61e+10	-8.562548
7.62e+10	-8.573313
7.63e+10	-8.584070
7.64e+10	-8.594817
7.65e+10	-8.605555
7.66e+10	-8.616284
7.67e+10	-8.627005
7.68e+10	-8.637716
7.69e+10	-8.648418
7.70e+10	-8.659111
7.71e+10	-8.669796
7.72e+10	-8.680471
7.73e+10	-8.691138
7.74e+10	-8.701795
7.75e+10	-8.712444
7.76e+10	-8.723083
7.77e+10	-8.733714
7.78e+10	-8.744336
7.79e+10	-8.754949
7.80e+10	-8.765553
7.81e+10	-8.776148
7.82e+10	-8.786734
7.83e+10	-8.797311
7.84e+10	-8.807880
7.85e+10	-8.818440
7.86e+10	-8.828990
7.87e+10	-8.839532
7.88e+10	-8.850066
7.89e+10	-8.860590
7.90e+10	-8.871106
7.91e+10	-8.881612
7.92e+10	-8.892110
7.93e+10	-8.902600
7.94e+10	-8.913080
7.95e+10	-8.923552
7.96e+10	-8.934015
7.97e+10	-8.944469
7.98e+10	-8.954915
7.99e+10	-8.965351
8.00e+10	-8.975779
8.01e+10	-8.986199
8.02e+10	-8.996610
8.03e+10	-9.007012
8.04e+10	-9.017405
8.05e+10	-9.027790
8.06e+10	-9.038166
8.07e+10	-9.048533
8.08e+10	-9.058892
8.09e+10	-9.069242
8.10e+10	-9.079583
8.11e+10	-9.089916
8.12e+10	-9.100240
8.13e+10	-9.110556
8.14e+10	-9.120863
8.15e+10	-9.131162
8.16e+10	-9.141452
8.17e+10	-9.151733
8.18e+10	-9.162006
8.19e+10	-9.172270
8.20e+10	-9.182526
8.21e+10	-9.192773
8.22e+10	-9.203012
8.23e+10	-9.213242
8.24e+10	-9.223464
8.25e+10	-9.233678
8.26e+10	-9.243882
8.27e+10	-9.254079
8.28e+10	-9.264267
8.29e+10	-9.274446
8.30e+10	-9.284617
8.31e+10	-9.294780
8.32e+10	-9.304934
8.33e+10	-9.315080
8.34e+10	-9.325217
8.35e+10	-9.335346
8.36e+10	-9.345467
8.37e+10	-9.355579
8.38e+10	-9.365683
8.39e+10	-9.375779
8.40e+10	-9.385866
8.41e+10	-9.395945
8.42e+10	-9.406015
8.43e+10	-9.416078
8.44e+10	-9.426132
8.45e+10	-9.436177
8.46e+10	-9.446215
8.47e+10	-9.456244
8.48e+10	-9.466265
8.49e+10	-9.476277
8.50e+10	-9.486282
8.51e+10	-9.496278
8.52e+10	-9.506266
8.53e+10	-9.516245
8.54e+10	-9.526217
8.55e+10	-9.536180
8.56e+10	-9.546135
8.57e+10	-9.556082
8.58e+10	-9.566021
8.59e+10	-9.575951
8.60e+10	-9.585874
8.61e+10	-9.595788
8.62e+10	-9.605694
8.63e+10	-9.615592
8.64e+10	-9.625482
8.65e+10	-9.635364
8.66e+10	-9.645238
8.67e+10	-9.655103
8.68e+10	-9.664961
8.69e+10	-9.674810
8.70e+10	-9.684652
8.71e+10	-9.694485
8.72e+10	-9.704311
8.73e+10	-9.714128
8.74e+10	-9.723937
8.75e+10	-9.733739
8.76e+10	-9.743532
8.77e+10	-9.753317
8.78e+10	-9.763094
8.79e+10	-9.772864
8.80e+10	-9.782625
8.81e+10	-9.792379
8.82e+10	-9.802124
8.83e+10	-9.811862
8.84e+10	-9.821591
8.85e+10	-9.831313
8.86e+10	-9.841027
8.87e+10	-9.850733
8.88e+10	-9.860431
8.89e+10	-9.870121
8.90e+10	-9.879803
8.91e+10	-9.889477
8.92e+10	-9.899144
8.93e+10	-9.908803
8.94e+10	-9.918454
8.95e+10	-9.928097
8.96e+10	-9.937732
8.97e+10	-9.947359
8.98e+10	-9.956979
8.99e+10	-9.966591
9.00e+10	-9.976195
9.01e+10	-9.985791
9.02e+10	-9.995380
9.03e+10	-10.004961
9.04e+10	-10.014534
9.05e+10	-10.024099
9.06e+10	-10.033657
9.07e+10	-10.043207
9.08e+10	-10.052749
9.09e+10	-10.062284
9.10e+10	-10.071810
9.11e+10	-10.081330
9.12e+10	-10.090841
9.13e+10	-10.100345
9.14e+10	-10.109841
9.15e+10	-10.119330
9.16e+10	-10.128811
9.17e+10	-10.138284
9.18e+10	-10.147750
9.19e+10	-10.157208
9.20e+10	-10.166658
9.21e+10	-10.176101
9.22e+10	-10.185537
9.23e+10	-10.194965
9.24e+10	-10.204385
9.25e+10	-10.213798
9.26e+10	-10.223203
9.27e+10	-10.232601
9.28e+10	-10.241991
9.29e+10	-10.251373
9.30e+10	-10.260749
9.31e+10	-10.270116
9.32e+10	-10.279476
9.33e+10	-10.288829
9.34e+10	-10.298174
9.35e+10	-10.307512
9.36e+10	-10.316843
9.37e+10	-10.326165
9.38e+10	-10.335481
9.39e+10	-10.344789
9.40e+10	-10.354090
9.41e+10	-10.363383
9.42e+10	-10.372669
9.43e+10	-10.381948
9.44e+10	-10.391219
9.45e+10	-10.400482
9.46e+10	-10.409739
9.47e+10	-10.418988
9.48e+10	-10.428230
9.49e+10	-10.437464
9.50e+10	-10.446691
9.51e+10	-10.455911
9.52e+10	-10.465124
9.53e+10	-10.474329
9.54e+10	-10.483527
9.55e+10	-10.492718
9.56e+10	-10.501901
9.57e+10	-10.511077
9.58e+10	-10.520246
9.59e+10	-10.529408
9.60e+10	-10.538562
9.61e+10	-10.547710
9.62e+10	-10.556850
9.63e+10	-10.565983
9.64e+10	-10.575108
9.65e+10	-10.584227
9.66e+10	-10.593338
9.67e+10	-10.602442
9.68e+10	-10.611539
9.69e+10	-10.620629
9.70e+10	-10.629712
9.71e+10	-10.638788
9.72e+10	-10.647856
9.73e+10	-10.656917
9.74e+10	-10.665972
9.75e+10	-10.675019
9.76e+10	-10.684059
9.77e+10	-10.693092
9.78e+10	-10.702118
9.79e+10	-10.711137
9.80e+10	-10.720149
9.81e+10	-10.729154
9.82e+10	-10.738151
9.83e+10	-10.747142
9.84e+10	-10.756126
9.85e+10	-10.765103
9.86e+10	-10.774073
9.87e+10	-10.783035
9.88e+10	-10.791991
9.89e+10	-10.800940
9.90e+10	-10.809882
9.91e+10	-10.818817
9.92e+10	-10.827745
9.93e+10	-10.836666
9.94e+10	-10.845580
9.95e+10	-10.854487
9.96e+10	-10.863388
9.97e+10	-10.872281
9.98e+10	-10.881168
9.99e+10	-10.890047
1.00e+11	-10.898920
1.00e+11	-10.907786
1.00e+11	-10.916645
1.00e+11	-10.925497
1.00e+11	-10.934343
1.00e+11	-10.943181
1.01e+11	-10.952013
1.01e+11	-10.960838
1.01e+11	-10.969656
1.01e+11	-10.978467
1.01e+11	-10.987272
1.01e+11	-10.996069
1.01e+11	-11.004860
1.01e+11	-11.013645
1.01e+11	-11.022422
1.02e+11	-11.031193
1.02e+11	-11.039957
1.02e+11	-11.048714
1.02e+11	-11.057465
1.02e+11	-11.066208
1.02e+11	-11.074945
1.02e+11	-11.083676
1.02e+11	-11.092400
1.02e+11	-11.101117
1.02e+11	-11.109827
1.02e+11	-11.118531
1.03e+11	-11.127228
1.03e+11	-11.135918
1.03e+11	-11.144602
1.03e+11	-11.153279
1.03e+11	-11.161950
1.03e+11	-11.170614
1.03e+11	-11.179271
1.03e+11	-11.187922
1.03e+11	-11.196566
1.04e+11	-11.205204
1.04e+11	-11.213835
1.04e+11	-11.222459
1.04e+11	-11.231077
1.04e+11	-11.239689
1.04e+11	-11.248294
1.04e+11	-11.256892
1.04e+11	-11.265484
1.04e+11	-11.274069
